Baseline 100%T,,BLANK,,L239_JUNE_3_2022,,
Wavelength (nm),Abs,Wavelength (nm),Abs,Wavelength (nm),Abs,
800.003418,0.01796364784,800.003418,8.336082101E-5,800.003418,0.0003847322951,
799.0322266,0.01787807792,799.0322266,0.0002638840524,799.0322266,0.0005445678835,
798.0606689,0.01841972582,798.0606689,-0.0002259774774,798.0606689,0.0001426033268,
796.9498291,0.01826667413,796.9498291,1.814644202E-5,796.9498291,0.0004419170436,
795.977478,0.01822102442,795.977478,3.572410424E-5,795.977478,0.0005076356465,
795.0047607,0.01836217754,795.0047607,0.0003665964468,795.0047607,-6.186305836E-5,
794.0316772,0.01880980842,794.0316772,-5.301122656E-5,794.0316772,0.000313669967,
793.0581665,0.01872255839,793.0581665,-0.0009427783662,793.0581665,0.000173496519,
791.9451294,0.01911185868,791.9451294,-0.0003781846026,791.9451294,-7.801329775E-5,
790.9708862,0.0186249502,790.9708862,0.0003318295348,790.9708862,0.000565951108,
789.9962158,0.01884057187,789.9962158,-0.0003057091963,789.9962158,0.0004126112035,
789.0211792,0.01876742393,789.0211792,4.90825696E-5,789.0211792,0.0007177116931,
788.0457764,0.01894874685,788.0457764,0.0002129383938,788.0457764,2.588674033E-5,
786.930542,0.01903158054,786.930542,6.070683958E-5,786.930542,0.0001074141619,
785.9543457,0.01930812746,785.9543457,-0.0002583168971,785.9543457,6.521165051E-5,
784.9777832,0.01925508678,784.9777832,-0.000404254155,784.9777832,0.0004025061789,
784.0007935,0.0195222199,784.0007935,-0.0005681875627,784.0007935,0.0002037703671,
783.0234985,0.01926342212,783.0234985,-0.0002682510822,783.0234985,0.0004126112035,
782.0458374,0.01896762103,782.0458374,0.0002592476667,782.0458374,0.0008909245953,
781.067749,0.01904039644,781.067749,0.0001556284406,781.067749,0.0006634980091,
779.9495239,0.01907628775,779.9495239,0.0003195503959,779.9495239,0.0007310911315,
778.9707031,0.01905965433,778.9707031,0.0005354447057,778.9707031,0.0004863330396,
777.9914551,0.01945897378,777.9914551,0.0001010705819,777.9914551,0.0003281250247,
777.0119019,0.01951117255,777.0119019,-0.0001195767109,777.0119019,-8.12743383E-5,
776.0319214,0.01947167143,776.0319214,2.311678509E-5,776.0319214,7.129580626E-5,
775.0516357,0.01932284981,775.0516357,-0.0002263396891,775.0516357,0.0005405505071,
773.9307861,0.01932460815,773.9307861,-4.312388046E-5,773.9307861,0.0002617860155,
772.949707,0.0195028875,772.949707,-3.820600978E-5,772.949707,-7.004178042E-5,
771.9682617,0.0195347555,771.9682617,-0.0001956021006,771.9682617,0.0002544559538,
770.9863892,0.01950494573,770.9863892,3.722561814E-5,770.9863892,0.0003975314903,
770.0042114,0.0192909427,770.0042114,0.0001483260421,770.0042114,0.0001385120122,
769.0216675,0.01883843541,769.0216675,0.0001531683956,769.0216675,0.0002374651231,
768.0387573,0.01889677905,768.0387573,-0.0003548034292,768.0387573,0.0003869345819,
767.055481,0.01867896691,767.055481,8.644184709E-5,767.055481,0.0003832814109,
765.9312744,0.0186116565,765.9312744,0.000296391896,765.9312744,0.0001861341152,
764.9472046,0.01852644607,764.9472046,0.0002210965467,764.9472046,0.0005053291097,
763.9627686,0.01843914576,763.9627686,0.000183233642,763.9627686,0.0005649143131,
762.9780273,0.01910674572,762.9780273,-7.299229765E-5,762.9780273,0.000202086987,
761.9928589,0.01892846636,761.9928589,0.0002098564728,761.9928589,0.0005611560191,
761.0073853,0.01858736761,761.0073853,-6.351951743E-5,761.0073853,0.0002188433282,
760.0214844,0.01865451224,760.0214844,4.245506352E-5,760.0214844,0.0004879397748,
759.0352783,0.01882924512,759.0352783,5.80402193E-5,759.0352783,-4.094967153E-5,
758.0487061,0.01833976433,758.0487061,0.0002917292877,758.0487061,0.0004758116847,
757.0617676,0.01775914058,757.0617676,0.0004345061898,757.0617676,1.964789408E-5,
755.9334106,0.01765560172,755.9334106,3.080539318E-5,755.9334106,0.0001078802306,
754.9457397,0.01756928302,754.9457397,-3.54105614E-5,754.9457397,-5.855011477E-5,
753.9576416,0.01750521734,753.9576416,-0.0001118647488,753.9576416,-2.231313192E-5,
752.9692383,0.01736005768,752.9692383,-0.0001242348808,752.9692383,0.0001173569472,
751.9804688,0.01688514836,751.9804688,0.0001428104733,751.9804688,0.0002671476977,
750.991333,0.01697205566,750.991333,4.644190994E-5,750.991333,-5.021848665E-6,
750.0018921,0.01673489623,750.0018921,2.583496462E-5,750.0018921,0.0003015467664,
749.0120239,0.01647143438,749.0120239,0.0001101587623,749.0120239,3.694084808E-5,
748.0218506,0.01614249498,748.0218506,8.250641986E-5,748.0218506,0.0004166532599,
747.031311,0.01577012613,747.031311,-8.335201528E-6,747.031311,0.0002470482723,
746.0404053,0.01563445479,746.0404053,0.0002457273367,746.0404053,0.0005000681849,
745.0491943,0.01544254832,745.0491943,-0.000291533448,745.0491943,0.0005310904817,
744.0575562,0.01536214072,744.0575562,-0.0001828717504,744.0575562,0.0001350939856,
743.0656128,0.01496721059,743.0656128,0.0002464007703,743.0656128,0.0001676957909,
741.9315186,0.01474742405,741.9315186,-0.0002388100402,741.9315186,-0.0001560643432,
740.9388428,0.0141731035,740.9388428,0.0002396148338,740.9388428,0.0003541608748,
739.9458008,0.01388836652,739.9458008,-0.0003174012818,739.9458008,8.330903802E-5,
738.9523926,0.01325462013,738.9523926,9.881798178E-5,738.9523926,0.0001298375428,
737.9586182,0.01282224618,737.9586182,-0.0002645257919,737.9586182,0.0003087222285,
736.9645386,0.01207026653,736.9645386,6.101751205E-5,736.9645386,0.0003199130588,
735.9700928,0.01137174573,735.9700928,3.380839189E-5,735.9700928,0.0003013395471,
734.9752808,0.01063903701,734.9752808,-7.081823424E-5,734.9752808,0.0002277785825,
733.9801636,0.009830079041,733.9801636,-6.336422666E-5,733.9801636,0.0003315445792,
732.9846802,0.008824871853,732.9846802,-2.847447149E-6,732.9846802,0.0002745038946,
731.9888306,0.008034022525,731.9888306,-0.0001076722765,731.9888306,0.0002376464254,
730.9926758,0.006935339887,730.9926758,0.000120567689,730.9926758,0.0002207339712,
729.9961548,0.005972913932,729.9961548,0.0002700228069,729.9961548,0.0005930640036,
728.9992676,0.005110119469,728.9992676,0.0001175123107,728.9992676,0.000414295384,
728.0020752,0.003949726,728.0020752,0.0001617138623,728.0020752,0.000331285526,
727.0045166,0.003251407295,727.0045166,9.11281677E-5,727.0045166,0.0003101469483,
726.0065918,0.002318077255,726.0065918,0.000339756778,726.0065918,0.0005500885309,
725.0083618,0.001470895484,725.0083618,0.0001185480287,725.0083618,0.0003967023804,
724.0097656,0.0007825384964,724.0097656,9.914439033E-6,724.0097656,0.0004922416992,
723.0108643,-7.972805179E-6,723.0108643,-2.609227158E-5,723.0108643,0.0004592527403,
722.0115967,-0.0007820354076,722.0115967,9.990543913E-5,722.0115967,0.0006246373523,
721.0119629,-0.001386360032,721.0119629,6.710161688E-5,721.0119629,0.0005121969152,
720.0120239,-0.001954335487,720.0120239,-7.485577225E-5,720.0120239,0.0004331069358,
719.0117188,-0.002721956,719.0117188,4.271394937E-5,719.0117188,0.0007527688285,
718.0111084,-0.003031256841,718.0111084,-9.178194159E-5,718.0111084,0.0005511771305,
717.0101318,-0.003740931163,717.0101318,0.0002354967146,717.0101318,0.0006587795797,
716.0087891,-0.003873490961,716.0087891,-1.599723328E-5,716.0087891,0.0005469264579,
715.0071411,-0.004090230912,715.0071411,0.0001168390882,715.0071411,0.0005610782537,
714.005188,-0.004303121008,714.005188,4.900490239E-5,714.005188,0.0007364326739,
713.0028687,-0.004364066757,713.0028687,9.827425674E-5,713.0028687,0.0007961533265,
712.0001831,-0.004044173285,712.0001831,-7.418284804E-5,712.0001831,0.0005891239853,
710.9971924,-0.003962046932,710.9971924,-6.32089359E-5,710.9971924,0.0004939520732,
709.9938965,-0.003550000722,709.9938965,1.58166149E-5,709.9938965,0.0005678432644,
708.9902344,-0.003035009839,708.9902344,2.614490768E-6,708.9902344,0.0005856505595,
707.9862061,-0.00258585345,707.9862061,-0.0001139868473,707.9862061,0.0006965543143,
706.9818726,-0.001816497068,706.9818726,-5.865364437E-5,706.9818726,0.0006536982255,
705.9772339,-0.001159488223,705.9772339,4.853890277E-5,705.9772339,0.000603665947,
704.972229,-0.0002783402742,704.972229,3.388605546E-5,704.972229,0.0005071950727,
703.9668579,0.0005583826569,703.9668579,-1.765387242E-5,703.9668579,0.0005290689296,
702.9611816,0.00154116028,702.9611816,7.300456491E-5,702.9611816,0.000514037034,
701.9552002,0.002503098687,701.9552002,-8.624348266E-5,701.9552002,0.0004437827156,
700.9488525,0.003235733137,700.9488525,0.0001358449226,700.9488525,0.0006040807348,
699.9421997,0.004036487546,699.9421997,0.0001287500054,699.9421997,0.0005469005555,
698.9352417,0.004769987892,698.9352417,0.0003055878042,698.9352417,0.0006030697259,
698.0718384,0.005571376067,698.0718384,0.0002231166873,698.0718384,0.000799913716,
697.064209,0.006553934421,697.064209,0.000237076616,697.064209,0.0007497608312,
696.0562744,0.007523497101,696.0562744,0.0002996298717,696.0562744,0.0007946491824,
695.0480347,0.00858535897,695.0480347,0.0002651532413,695.0480347,0.0004392999108,
694.0394287,0.009285940789,694.0394287,0.0001406094525,694.0394287,0.0007467788528,
693.0305176,0.01000270061,693.0305176,0.0003560261976,693.0305176,0.000759692397,
692.0212402,0.01091432478,692.0212402,0.0003977906017,692.0212402,0.0003861314035,
691.0117188,0.01149958,691.0117188,1.967337994E-6,691.0117188,0.0005122487783,
690.00177,0.01205176953,690.00177,0.0003207679256,690.00177,0.0008230990497,
688.9915771,0.01269935351,688.9915771,0.0003582801146,688.9915771,0.0008954120567,
687.9810181,0.01330533065,687.9810181,0.0003434613755,687.9810181,0.0007726582699,
686.9701538,0.01391060371,686.9701538,0.0004246856843,686.9701538,0.0007351880195,
685.9589233,0.01457614545,685.9589233,-0.0001300316362,685.9589233,0.0004441973288,
684.9474487,0.01494028326,684.9474487,2.614561527E-5,684.9474487,0.0007909148117,
683.9355469,0.01547932439,683.9355469,2.992520967E-5,683.9355469,0.0006033289828,
683.0679932,0.01573743299,683.0679932,6.518576265E-5,683.0679932,0.000605454552,
682.055542,0.01607885212,682.055542,0.0001782096806,682.055542,0.0008642599569,
681.0427856,0.01645842195,681.0427856,0.0001178489183,681.0427856,0.0008180935984,
680.0297241,0.01692592166,680.0297241,-0.0002024846035,680.0297241,0.0008243179764,
679.0162964,0.01738923788,679.0162964,-0.0001278578566,679.0162964,0.0006357067032,
678.0025635,0.01761987992,678.0025635,-0.0001848382526,678.0025635,0.0008551559877,
676.9885254,0.01802904904,676.9885254,-0.0001689507335,676.9885254,0.0007299761637,
675.9741211,0.01826168038,675.9741211,5.136079926E-5,675.9741211,0.0007268646732,
674.9594727,0.01849240996,674.9594727,-1.915557505E-6,674.9594727,0.0006523760967,
673.944458,0.01888669282,673.944458,-0.0004214261135,673.944458,0.0005808811402,
672.9290771,0.01902668364,672.9290771,-5.10958962E-5,672.9290771,0.0009176167659,
672.0585938,0.01931475848,672.0585938,-2.78524094E-5,672.0585938,0.0008306202944,
671.0426636,0.01961090229,671.0426636,0.0002064119908,671.0426636,0.0009101977921,
670.0264282,0.01968454383,670.0264282,0.0001298375428,670.0264282,0.001169704017,
669.0098877,0.01989194006,669.0098877,2.492890235E-5,669.0098877,0.001263881801,
667.992981,0.02026913315,667.992981,-8.821042138E-5,667.992981,0.001147590228,
666.9758301,0.02000387385,666.9758301,-0.0001111401289,666.9758301,0.0007923411322,
665.958313,0.01954404451,665.958313,2.699990364E-5,665.958313,0.0009308726876,
664.9404907,0.01939216629,664.9404907,0.0001241668506,664.9404907,0.0009494471597,
664.0678101,0.01921831444,664.0678101,0.0001597199007,664.0678101,0.001173026394,
663.0494385,0.0193262063,663.0494385,-7.972805179E-6,663.0494385,0.001098097884,
662.0307007,0.01950708404,662.0307007,-0.0002678371675,662.0307007,0.0007976056077,
661.0117188,0.01927787252,661.0117188,-2.34002855E-5,661.0117188,0.001042383607,
659.9923706,0.01919848286,659.9923706,-3.820600978E-5,659.9923706,0.0009688527207,
658.9727173,0.01907060854,658.9727173,0.0001136801657,658.9727173,0.001037764829,
657.9527588,0.01918790489,657.9527588,-0.0001111918828,657.9527588,0.0009667772101,
656.9324951,0.01922391541,656.9324951,-0.0001825094951,656.9324951,0.000808860932,
656.0577393,0.01920199953,656.0577393,-0.000178731716,656.0577393,0.001041008392,
655.0368652,0.01923087053,655.0368652,-0.000111347159,655.0368652,0.0009799568215,
654.0157471,0.01901792176,654.0157471,0.0002040293475,654.0157471,0.001200462691,
652.9942627,0.01908221096,652.9942627,0.0001067150733,652.9942627,0.001062104711,
651.9725342,0.01912743971,651.9725342,3.336829468E-5,651.9725342,0.001119015273,
650.9504395,0.0192138236,650.9504395,-5.068176688E-5,650.9504395,0.0009660507785,
649.9280396,0.01912440918,649.9280396,0.0002547926561,649.9280396,0.001156700309,
649.0514526,0.01942064241,649.0514526,-8.986678586E-5,649.0514526,0.0009083041223,
648.0285034,0.01922927424,648.0285034,4.584647104E-5,648.0285034,0.0009477609419,
647.005249,0.0194131434,647.005249,-0.0001207671376,647.005249,0.0009607064421,
645.9816895,0.01929251291,645.9816895,0.0002628738876,645.9816895,0.00102990272,
644.9578247,0.01935070008,644.9578247,0.0001415934385,644.9578247,0.00121917855,
643.9336548,0.01960047707,643.9336548,-0.0001751609088,643.9336548,0.0007573326584,
643.055542,0.01960337535,643.055542,-5.156178668E-5,643.055542,0.0009086413775,
642.0307617,0.01956267282,642.0307617,1.824999163E-5,642.0307617,0.001243684324,
641.0057373,0.01950161532,641.0057373,0.0002599470026,641.0057373,0.00146658381,
639.9804077,0.01971165836,639.9804077,8.574278763E-5,639.9804077,0.001025284058,
638.9547119,0.01974153705,638.9547119,8.387134585E-6,638.9547119,0.001106921467,
637.928772,0.01972956397,637.928772,8.235107089E-5,637.928772,0.0009826031746,
637.0491333,0.01980460808,637.0491333,3.010642467E-5,637.0491333,0.001430612057,
636.022644,0.01988177747,636.022644,7.121813542E-5,636.022644,0.001213234034,
634.9958496,0.01981463283,634.9958496,0.0001803850027,634.9958496,0.001321675722,
633.96875,0.02003163099,633.96875,1.118288219E-5,633.96875,0.001069941442,
632.9413452,0.02018370666,632.9413452,-0.0001152290424,632.9413452,0.0009964577621,
632.0604248,0.02010642737,632.0604248,-0.0001274955575,632.0604248,0.001091506216,
631.0324707,0.02005638182,631.0324707,5.715998122E-5,631.0324707,0.001281042583,
630.0042114,0.0201680325,630.0042114,8.760695346E-5,630.0042114,0.001150834607,
628.975647,0.02013316192,628.975647,0.0001102882306,628.975647,0.001283586957,
627.9467773,0.02010241523,627.9467773,0.000140505872,627.9467773,0.001201371197,
627.0646973,0.02012966387,627.0646973,0.0001072329178,627.0646973,0.001410640427,
626.0352783,0.02033344656,626.0352783,8.878977496E-6,626.0352783,0.001182136941,
625.0055542,0.02047018707,625.0055542,-5.161355512E-5,625.0055542,0.001127320225,
623.9755859,0.02051110938,623.9755859,-0.0001755749108,623.9755859,0.001156518701,
622.9452515,0.02043911815,622.9452515,0.0001506824774,622.9452515,0.001352419262,
622.0619507,0.02044080012,622.0619507,0.0001449338306,622.0619507,0.001299865777,
621.0310669,0.0204861965,621.0310669,-5.125391453E-6,621.0310669,0.001404511509,
619.999939,0.02052872255,619.999939,2.837194734E-5,619.999939,0.001238648081,
618.9685059,0.0205378402,618.9685059,0.0002032783086,618.9685059,0.00136914209,
617.9368286,0.0205691345,617.9368286,0.0002957443066,617.9368286,0.001629156643,
617.0522461,0.02068238333,617.0522461,0.0001558356016,617.0522461,0.001393292798,
616.0200195,0.02076008916,616.0200195,0.0001484814129,616.0200195,0.001533522853,
614.9874268,0.02074939013,614.9874268,0.0002059717081,614.9874268,0.001270917361,
613.9545898,0.02091296203,613.9545898,0.0002271051926,613.9545898,0.001301501528,
613.0690918,0.02081192844,613.0690918,7.114046457E-5,613.0690918,0.001429235563,
612.0357056,0.02068555914,612.0357056,0.0001651579951,612.0357056,0.001581947668,
611.0020142,0.02092722245,611.0020142,0.0001528317662,611.0020142,0.001401550951,
609.9680786,0.02082480118,609.9680786,0.0001780542952,609.9680786,0.001456843922,
608.9338379,0.02096180432,608.9338379,5.837678327E-5,608.9338379,0.001485648798,
608.0471191,0.02075096592,608.0471191,0.0003523732885,608.0471191,0.001881683362,
607.0123291,0.02092222497,607.0123291,0.0001773809927,607.0123291,0.001734375604,
605.9772339,0.02080299333,605.9772339,0.0002370507282,605.9772339,0.001727982191,
604.9418945,0.02072902583,604.9418945,0.0002856420178,604.9418945,0.001662806259,
604.0542603,0.02074322663,604.0542603,0.0002569683711,604.0542603,0.001739573549,
603.0183716,0.02080302127,603.0183716,0.0002223656193,603.0183716,0.00154368009,
601.9821777,0.02084709704,601.9821777,0.0002706962696,601.9821777,0.001588416868,
600.9457397,0.02076152712,600.9457397,0.0003554303257,600.9457397,0.001757298945,
600.0571289,0.02080437914,600.0571289,0.0002577712876,600.0571289,0.001615203917,
599.0201416,0.02076361887,599.0201416,0.0002807464043,599.0201416,0.001620764146,
597.9828491,0.0204958301,597.9828491,0.0003095511638,597.9828491,0.00180320139,
596.9453125,0.02045382559,596.9453125,0.0002724835067,596.9453125,0.00174308219,
596.0557861,0.02045132779,596.0557861,0.0004029466654,596.0557861,0.001683984767,
595.0177002,0.02039383538,595.0177002,0.0003764933499,595.0177002,0.001726682764,
593.9793701,0.0205687806,593.9793701,6.399482663E-5,593.9793701,0.001453597331,
592.9407349,0.02025345713,592.9407349,0.0002815752814,592.9407349,0.001833173097,
592.050293,0.02024757117,592.050293,0.0003388759505,592.050293,0.001826050458,
591.0111084,0.02034758031,591.0111084,0.0001928932907,591.0111084,0.001654542983,
589.9716797,0.02029473893,589.9716797,7.473921869E-5,589.9716797,0.001561319688,
588.9320068,0.02020304091,588.9320068,0.0002618637227,588.9320068,0.001706021954,
588.0405884,0.02010154724,588.0405884,0.0001705961477,588.0405884,0.001773751574,
587.0003662,0.01996224001,587.0003662,0.0003739025269,587.0003662,0.001825842424,
585.9598999,0.01992004178,585.9598999,0.0002641171741,585.9598999,0.001966134179,
585.0678101,0.01985649578,585.0678101,0.0004099683138,585.0678101,0.001969332807,
584.0267944,0.01962230541,584.0267944,0.0004576460924,584.0267944,0.002090422437,
582.9854736,0.01965548098,582.9854736,0.0002848131408,582.9854736,0.002083841711,
581.9439087,0.01950610988,581.9439087,0.0003178406623,581.9439087,0.002027558628,
581.0509644,0.019438833,581.0509644,0.0003472437384,581.0509644,0.001909242477,
580.0088501,0.01935716718,580.0088501,0.000195690227,580.0088501,0.00199936796,
578.9664917,0.01929134876,578.9664917,0.0002087946341,578.9664917,0.00201042043,
578.072876,0.01917180605,578.072876,0.0001603413984,578.072876,0.002120439894,
577.0300293,0.01898238622,577.0300293,0.0002395630436,577.0300293,0.002130376874,
575.9868774,0.01881986484,575.9868774,0.0001862117933,575.9868774,0.002170985565,
574.9434814,0.01873485558,574.9434814,0.0001743769972,574.9434814,0.002138155047,
574.0489502,0.01853563078,574.0489502,0.0001896561298,574.0489502,0.00217332691,
573.0050049,0.01825811714,573.0050049,0.0003171671124,573.0050049,0.002236237749,
571.9608154,0.01818409562,571.9608154,0.0001329188963,571.9608154,0.002176240785,
571.0656128,0.01808385551,571.0656128,0.0002126017207,571.0656128,0.002205821918,
570.0209351,0.01797762327,570.0209351,0.0001197908932,570.0209351,0.002209282247,
568.9760132,0.01777200215,568.9760132,0.0001077248744,568.9760132,0.002289659344,
567.9307861,0.01763923652,567.9307861,-3.551409463E-5,567.9307861,0.002304700669,
567.034668,0.01744377427,567.034668,-3.12691227E-5,567.034668,0.00215527229,
565.9889526,0.01711913198,565.9889526,0.0002185325429,565.9889526,0.002339105587,
564.9429932,0.01687301137,564.9429932,0.0003587205429,564.9429932,0.002383663785,
564.0462036,0.0167082902,564.0462036,0.0001659866539,564.0462036,0.00256506796,
562.9997559,0.01650332287,562.9997559,8.284299838E-5,562.9997559,0.002300224733,
561.9530029,0.01614762656,561.9530029,0.0001925048273,561.9530029,0.002505624201,
561.055603,0.01599166729,561.055603,0.0001085793265,561.055603,0.002390119014,
560.0083618,0.01571880467,560.0083618,2.648215377E-5,560.0083618,0.002467561746,
558.9608765,0.01540553384,558.9608765,0.0001211373383,558.9608765,0.002494272776,
558.0628052,0.01505504921,558.0628052,2.749176929E-5,558.0628052,0.002695075702,
557.0148315,0.01471443288,557.0148315,5.532183786E-5,557.0148315,0.002550590318,
555.9665527,0.01433643792,555.9665527,8.074584184E-5,555.9665527,0.002701483201,
555.0678711,0.01396663021,555.0678711,0.0002531090868,555.0678711,0.002751419088,
554.019104,0.01300059631,554.019104,0.0001266526233,554.019104,0.00264384388,
552.9700928,0.01255781669,552.9700928,9.208614938E-5,552.9700928,0.002668248024,
552.0707397,0.01232097764,552.0707397,0.0001493877207,552.0707397,0.002823168179,
551.0213013,0.01194947585,551.0213013,7.610541161E-6,551.0213013,0.002711954527,
549.9715576,0.01138904504,549.9715576,0.0001630604384,549.9715576,0.002878772561,
549.0715332,0.01104510389,549.0715332,0.0002033041965,549.0715332,0.002955624834,
548.0213013,0.0106133325,548.0213013,9.431282524E-5,548.0213013,0.002993026515,
546.9708252,0.01023048628,546.9708252,1.384921416E-5,546.9708252,0.00294770184,
546.0702515,0.009773418307,546.0702515,0.0001358449226,546.0702515,0.003170878161,
545.0192871,0.009377451614,545.0192871,0.0001144569469,545.0192871,0.003102852032,
543.9680176,0.008901066147,543.9680176,0.0001351457759,543.9680176,0.00317411148,
543.0667725,0.008773149922,543.0667725,7.636427654E-6,543.0667725,0.003027225146,
542.0150757,0.00817076955,542.0150757,-7.196239494E-6,542.0150757,0.003141231136,
540.9631348,0.00784631446,540.9631348,-2.272728489E-5,540.9631348,0.003105720039,
540.0612793,0.007630575448,540.0612793,2.231427789E-5,540.0612793,0.00317841419,
539.0088501,0.007288570516,539.0088501,-4.027670002E-5,539.0088501,0.003252346069,
537.9561157,0.007082791068,537.9561157,3.468733667E-6,537.9561157,0.003359733149,
537.0536499,0.006836636923,537.0536499,-6.263952673E-5,537.0536499,0.003297206946,
536.0004883,0.006644555833,536.0004883,3.696673593E-5,536.0004883,0.003377446439,
534.9470825,0.006652362645,534.9470825,4.985923806E-5,534.9470825,0.003404187504,
534.0439453,0.006556588691,534.0439453,-1.201092346E-5,534.0439453,0.003332003485,
532.9901123,0.006666609552,532.9901123,-0.0001023410587,532.9901123,0.003419998335,
531.9359741,0.006762644276,531.9359741,0.0001377610897,531.9359741,0.00364242564,
531.0322266,0.007016701624,531.0322266,-0.0001084486648,531.0322266,0.00347533985,
529.9776001,0.007187023759,529.9776001,-1.542776226E-5,529.9776001,0.003545694984,
529.0734863,0.00739590684,529.0734863,-7.889326662E-5,529.0734863,0.003557726275,
528.0184326,0.0077574444,528.0184326,-1.356403573E-5,528.0184326,0.003821352962,
526.9631348,0.008403244428,526.9631348,4.555954547E-6,526.9631348,0.003694662824,
526.0583496,0.008671308868,526.0583496,4.73997934E-5,526.0583496,0.003896413371,
525.0026245,0.009304770268,525.0026245,-9.669920837E-5,525.0026245,0.003803882515,
523.9465942,0.00987694785,523.9465942,-5.466772564E-5,523.9465942,0.003886644728,
523.0412598,0.01036169659,523.0412598,-3.934649158E-6,523.0412598,0.003809653688,
521.9847412,0.01120654866,521.9847412,-7.599455421E-5,521.9847412,0.003678502748,
520.9280396,0.0119549837,520.9280396,-0.0001074652464,520.9280396,0.003702625399,
520.0220947,0.01245244686,520.0220947,1.749926741E-5,520.0220947,0.003890144639,
518.9649048,0.01303017698,518.9649048,0.0001272222871,518.9649048,0.004055770114,
518.0585327,0.013648903,518.0585327,5.728942779E-5,518.0585327,0.004007068463,
517.0009155,0.01432129461,517.0009155,0.0001221730636,517.0009155,0.00398352975,
515.9430542,0.01507102139,515.9430542,-7.702980656E-5,515.9430542,0.004136855248,
515.0360718,0.01561983116,515.0360718,-2.800771472E-5,515.0360718,0.00426398823,
513.9777222,0.01629202999,513.9777222,-7.62533673E-5,513.9777222,0.004188315477,
513.0704346,0.01684435084,513.0704346,-4.742050442E-5,513.0704346,0.004217224196,
512.0116577,0.01733322442,512.0116577,6.733462214E-5,512.0116577,0.004279882647,
510.9526062,0.01801315695,510.9526062,-3.598000694E-5,510.9526062,0.00421839999,
510.0446777,0.01837203465,510.0446777,0.0001861600031,510.0446777,0.004481460433,
508.9852295,0.01892295107,508.9852295,-7.662179087E-6,508.9852295,0.004514573608,
507.9255066,0.01948052458,507.9255066,-1.522068305E-5,507.9255066,0.004540364258,
507.0169983,0.01999712363,507.0169983,-5.792893353E-5,507.0169983,0.004481800832,
505.9568176,0.02029880695,505.9568176,3.388605546E-5,505.9568176,0.004575286992,
505.0479431,0.0206813775,505.0479431,1.553158313E-7,505.0479431,0.004510466941,
503.9873352,0.02093317173,503.9873352,5.612440509E-5,503.9873352,0.004847961012,
502.9264832,0.02148658782,502.9264832,-0.0001057054324,502.9264832,0.004630828276,
502.0170288,0.02161096036,502.0170288,5.511472409E-5,502.0170288,0.004827595782,
500.9557495,0.02191131562,500.9557495,-6.574986401E-6,500.9557495,0.004874740262,
500.0458984,0.02194927074,500.0458984,0.0001885943348,500.0458984,0.004966896959,
498.9841614,0.0222088024,498.9841614,0.0001448561525,498.9841614,0.00495178951,
498.0739441,0.02249869518,498.0739441,-4.866534709E-6,498.0739441,0.004910579883,
497.0117798,0.02258995175,497.0117798,-1.206269371E-5,497.0117798,0.004970589187,
495.9494019,0.02270978317,495.9494019,2.490301631E-5,495.9494019,0.005151086487,
495.0385742,0.02280340344,495.0385742,1.102756232E-5,495.0385742,0.005181158893,
493.975769,0.02291843854,493.975769,9.426104225E-5,493.975769,0.005282289814,
493.0645752,0.02288784832,493.0645752,5.327659164E-5,493.0645752,0.005402839277,
492.0013123,0.02280048467,492.0013123,7.59819668E-5,492.0013123,0.005434790161,
490.9378357,0.02271417528,490.9378357,0.0001569490996,490.9378357,0.005456258543,
490.0260925,0.02279742993,490.0260925,-4.607677965E-6,490.0260925,0.005658803042,
488.9621582,0.02265741862,488.9621582,3.624037106E-7,488.9621582,0.005655236077,
488.0500488,0.02244747244,488.0500488,7.251265197E-5,488.0500488,0.005818807986,
486.9857178,0.02234654315,486.9857178,3.683729665E-5,486.9857178,0.005775810685,
486.0732117,0.02226920612,486.0732117,2.951010401E-6,486.0732117,0.005934546236,
485.0084534,0.02194758132,485.0084534,-4.861112757E-5,485.0084534,0.005997689441,
483.9434509,0.02164910547,483.9434509,8.21439462E-5,483.9434509,0.005996665917,
483.0303955,0.02143366262,483.0303955,0.0001271187066,483.0303955,0.006001363974,
481.9649658,0.02132598124,481.9649658,-7.921034012E-6,481.9649658,0.006234150846,
481.0515747,0.0210537985,481.0515747,8.93675533E-5,481.0515747,0.006344195455,
479.9857178,0.02093738317,479.9857178,5.669397069E-5,479.9857178,0.006426917855,
479.0719604,0.0207992997,479.0719604,-3.313391289E-6,479.0719604,0.006553855725,
478.0056763,0.02078278922,478.0056763,-0.0001121753012,478.0056763,0.006402695552,
476.9391785,0.02072294429,476.9391785,-4.560868183E-5,476.9391785,0.006752443034,
476.0248718,0.02091236413,476.0248718,-8.490515029E-6,476.0248718,0.006646001711,
474.9579468,0.02110368758,474.9579468,1.247721593E-5,474.9579468,0.006857306696,
474.0432739,0.02137473412,474.0432739,-0.0001231479691,474.0432739,0.006837005261,
472.9759521,0.02171672508,472.9759521,3.065006968E-5,472.9759521,0.007047719322,
472.0609131,0.02214233205,472.0609131,-4.338271538E-5,472.0609131,0.007113734726,
470.9931641,0.02291603573,470.9931641,-9.328300803E-5,470.9931641,0.007216185331,
469.9252014,0.02361480333,469.9252014,-5.689363024E-5,469.9252014,0.007290728856,
469.009613,0.02410263382,469.009613,0.0001077766574,469.009613,0.007635080721,
467.9412231,0.02497502789,467.9412231,6.471974484E-5,467.9412231,0.007377370726,
467.0252991,0.02558479831,467.0252991,-3.535879296E-5,467.0252991,0.007452389691,
465.9565125,0.02627794817,465.9565125,9.363963909E-5,465.9565125,0.007575729396,
465.0402222,0.02700851113,465.0402222,-0.0001080345901,465.0402222,0.007642299403,
463.9710388,0.02770443447,463.9710388,5.229280578E-5,463.9710388,0.007824384607,
463.0544128,0.0282803122,463.0544128,0.0001155444479,463.0544128,0.007849714719,
461.9848022,0.02898541838,461.9848022,2.309089723E-5,461.9848022,0.008182112128,
461.0678101,0.02949685976,461.0678101,-1.087197052E-5,461.0678101,0.008093595505,
459.9978027,0.02991665713,459.9978027,-0.0001887194667,459.9978027,0.00808763504,
458.9275818,0.030355433,458.9275818,4.52510285E-5,458.9275818,0.008315685205,
458.0100708,0.03081635386,458.0100708,-6.921356544E-5,458.0100708,0.008393400349,
456.9394531,0.03124207631,456.9394531,-5.813599273E-5,456.9394531,0.008766731247,
456.0215759,0.03154577315,456.0215759,8.576868277E-5,456.0215759,0.008576777764,
454.9505615,0.03191868961,454.9505615,-0.0001348967198,454.9505615,0.008687602356,
454.0323792,0.0322076939,454.0323792,-8.101552521E-5,454.0323792,0.008841673844,
452.9609375,0.03225776926,452.9609375,0.0001168390882,452.9609375,0.009038588032,
452.0423889,0.03249848261,452.0423889,3.984033174E-5,452.0423889,0.009177396074,
450.9705811,0.03283561394,450.9705811,6.668737478E-5,450.9705811,0.009260210209,
450.0516968,0.0330963172,450.0516968,0.0001468241389,450.0516968,0.009474008344,
448.9794922,0.03332603723,448.9794922,-7.061118231E-5,448.9794922,0.009579848498,
448.0602722,0.03341934457,448.0602722,-4.540161535E-5,448.0602722,0.00971207954,
446.9876404,0.03349553421,446.9876404,1.201125542E-5,446.9876404,0.009948877618,
446.0680847,0.03351225331,446.0680847,-9.638864867E-5,446.0680847,0.01003644895,
444.9950867,0.03363214806,444.9950867,-3.867191481E-5,444.9950867,0.01020496525,
444.0751953,0.03374809772,444.0751953,0.000109226632,444.0751953,0.01037556212,
443.0018005,0.03410084546,443.0018005,7.882992941E-5,443.0018005,0.01064439584,
441.9281921,0.03418594599,441.9281921,9.757517546E-5,441.9281921,0.01068302244,
441.0078125,0.03425571695,441.0078125,-7.987675053E-5,441.0078125,0.01078244392,
439.9338074,0.03419818729,439.9338074,-0.0001786799694,439.9338074,0.01094081718,
439.013092,0.03446505964,439.013092,-0.0001500091603,439.013092,0.0109652672,
437.9387207,0.03432986513,437.9387207,7.662922872E-5,437.9387207,0.01143010333,
437.0176392,0.03426834941,437.0176392,0.0001527799759,437.0176392,0.01153573114,
435.9429016,0.03433006257,435.9429016,-0.0001417801832,435.9429016,0.01155792829,
435.0215149,0.03411134705,435.0215149,6.896569539E-5,435.0215149,0.01187250577,
433.9463501,0.03405957669,433.9463501,-8.520824485E-5,433.9463501,0.01205972768,
433.0246582,0.0339958854,433.0246582,7.846745575E-5,433.0246582,0.01224742923,
431.9491272,0.03409401327,431.9491272,-1.786095163E-5,431.9491272,0.01237666607,
431.0270691,0.03404317051,431.0270691,3.028763967E-5,431.0270691,0.01272710133,
429.9511719,0.03394521773,429.9511719,0.0001078543355,429.9511719,0.01281216834,
429.0288086,0.03390150145,429.0288086,0.0001271704969,429.0288086,0.01321128104,
427.9525452,0.03412868083,427.9525452,-9.369709733E-5,427.9525452,0.01333026122,
427.0298462,0.03395258263,427.0298462,4.597591396E-5,427.0298462,0.01350083482,
425.953186,0.0339916572,425.953186,-5.166531992E-5,425.953186,0.013739869,
425.0301819,0.03387029469,425.0301819,-5.891246838E-5,425.0301819,0.01402723603,
423.9531555,0.03381642699,423.9531555,3.616420508E-5,423.9531555,0.01413253415,
423.0298462,0.03388218954,423.0298462,-9.6492171E-5,423.0298462,0.01435487159,
421.9524536,0.03385504335,421.9524536,0.0001055240282,421.9524536,0.01460042689,
421.0288086,0.03361777216,421.0288086,4.903079025E-5,421.0288086,0.01504974253,
419.9510193,0.03364053741,419.9510193,1.403042188E-5,419.9510193,0.01515638828,
419.0270691,0.03353828937,419.0270691,-0.0001414178987,419.0270691,0.01515488699,
417.9489441,0.03348026797,417.9489441,-4.819699825E-5,417.9489441,0.0155810304,
417.0246582,0.03328930959,417.0246582,0.000117279269,417.0246582,0.01587329805,
415.946167,0.03321570158,415.946167,7.652566273E-5,415.946167,0.01613405906,
415.0215759,0.03303452581,415.0215759,-1.584192432E-5,415.0215759,0.01651034132,
413.9427185,0.03293990344,413.9427185,2.803540883E-5,413.9427185,0.01673465408,
413.0178223,0.03289240599,413.0178223,-1.304633224E-5,413.0178223,0.01703049801,
411.9385681,0.0326526165,411.9385681,2.319444684E-5,411.9385681,0.01739750803,
411.0133667,0.03237516806,411.0133667,0.0001268597698,411.0133667,0.0177252721,
409.9337769,0.03223903105,409.9337769,0.0001211891285,409.9337769,0.01805959642,
409.0082703,0.03216172382,409.0082703,-3.623884186E-5,409.0082703,0.01817378402,
407.9283142,0.03188294545,407.9283142,-2.044943358E-5,407.9283142,0.01858561113,
407.0025024,0.03170666844,407.0025024,8.540620911E-5,407.0025024,0.01881935075,
406.0765381,0.03133680299,406.0765381,-7.392403495E-5,406.0765381,0.0191057995,
404.9960632,0.03082869388,404.9960632,4.519925278E-5,404.9960632,0.01957615837,
404.0697937,0.03051249869,404.0697937,1.768047696E-5,404.0697937,0.0199155435,
402.9889526,0.03027185425,402.9889526,-7.449342957E-5,402.9889526,0.02017882466,
402.0623779,0.03009978309,402.0623779,-1.889634586E-5,402.0623779,0.02050112188,
400.9812012,0.02976828814,400.9812012,4.377537698E-5,400.9812012,0.02086246945,
400.0543213,0.02933076955,400.0543213,7.437675231E-5,400.0543213,0.02137405425,
398.9728088,0.02905692905,398.9728088,1.434106343E-5,398.9728088,0.02169647813,
398.0456238,0.02871776745,398.0456238,0.0001385120122,398.0456238,0.02209651656,
396.9637451,0.02846697718,396.9637451,-2.837009379E-5,396.9637451,0.02260151319,
396.0362854,0.02809361555,396.0362854,-0.0001357248111,396.0362854,0.02291188948,
394.9540405,0.02765350416,394.9540405,-4.038192401E-6,394.9540405,0.02338961512,
394.0262756,0.02750281803,394.0262756,-0.0001202495623,394.0262756,0.02371974476,
392.9436951,0.02707837522,392.9436951,8.002090181E-5,392.9436951,0.0243603345,
392.015625,0.02697069012,392.015625,7.341881428E-5,392.015625,0.0247738529,
390.9327087,0.02673282661,390.9327087,1.853474896E-5,390.9327087,0.02505731769,
390.004364,0.02664116211,390.004364,-9.374885849E-5,390.004364,0.02554317564,
389.0758667,0.02639310807,389.0758667,0.0001632158092,389.0758667,0.02612782083,
387.9924316,0.02638056502,387.9924316,-5.21829752E-5,387.9924316,0.02653011866,
387.0636597,0.02653867751,387.0636597,-0.0002772019943,387.0636597,0.02686529048,
385.9798889,0.02650989592,385.9798889,-4.710990834E-5,385.9798889,0.02746470645,
385.0508118,0.02647464909,385.0508118,1.573895315E-5,385.0508118,0.02813827246,
383.9667053,0.0266971495,383.9667053,-0.0001236137905,383.9667053,0.02865502238,
383.0373535,0.02692590468,383.0373535,-9.100553143E-5,383.0373535,0.02927906811,
381.9529114,0.02723321319,381.9529114,-1.977642933E-5,381.9529114,0.02973932028,
381.0232544,0.02774438821,381.0232544,-0.0002227175282,381.0232544,0.02989904769,
379.9384766,0.02810977213,379.9384766,-8.971150237E-5,379.9384766,0.03069318086,
379.0085449,0.02851418778,379.0085449,-1.278748005E-5,379.0085449,0.03124975413,
377.9234314,0.02914060466,377.9234314,-7.7081575E-5,377.9234314,0.03180979565,
376.9932251,0.02971340157,376.9932251,-0.0001973615435,376.9932251,0.03231911361,
376.0628662,0.03022767231,376.0628662,-3.442697198E-5,376.0628662,0.03285063431,
374.9772644,0.03115638159,374.9772644,-0.0001066370969,374.9772644,0.03354365751,
374.0466309,0.03195602447,374.0466309,8.076497579E-6,374.0466309,0.034088891,
372.9607239,0.0327722691,372.9607239,6.837022374E-5,372.9607239,0.03518941253,
372.0297852,0.03339538723,372.0297852,4.178196104E-5,372.0297852,0.03566673398,
370.943573,0.0347385779,370.943573,7.906294195E-5,370.943573,0.03620994091,
370.0123596,0.03544161469,370.0123596,4.242917566E-5,370.0123596,0.03687117994,
368.9258118,0.03629359975,368.9258118,4.188551611E-5,368.9258118,0.03750357032,
367.9943237,0.03627328202,367.9943237,-3.701535752E-5,367.9943237,0.03812017664,
367.0627136,0.03684948385,367.0627136,0.0001104176918,367.0627136,0.03877983615,
365.9756775,0.0373602882,365.9756775,0.00017246067,365.9756775,0.03950413689,
365.0437927,0.03752998635,365.0437927,0.0002553106751,365.0437927,0.0403271243,
363.9564514,0.03784316778,363.9564514,2.226250399E-5,363.9564514,0.04111669958,
363.024292,0.03852811828,363.024292,-0.0003426467883,363.024292,0.04143259674,
361.936615,0.0386117138,361.936615,1.835353942E-5,361.936615,0.04250212014,
361.0041809,0.03865197673,361.0041809,8.662309119E-5,361.0041809,0.04318256676,
360.0716248,0.03910293058,360.0716248,-0.0002056929516,360.0716248,0.04354477674,
358.98349,0.03899912909,358.98349,6.011137884E-5,358.98349,0.04472857714,
358.0506592,0.03918655217,358.0506592,-3.209848273E-6,358.0506592,0.04528094456,
356.9622192,0.03933428973,356.9622192,-8.355186583E-5,356.9622192,0.04626968503,
356.0291138,0.03926154971,356.0291138,0.0001154149795,356.0291138,0.04718735069,
354.9403687,0.03949860856,354.9403687,-4.607677965E-6,354.9403687,0.04790980741,
354.0069885,0.0395055823,354.0069885,0.0001395736763,354.0069885,0.04877058789,
353.0735168,0.03941591829,353.0735168,0.0001912876614,353.0735168,0.04988495633,
351.9842834,0.03971503302,351.9842834,-0.0001233032526,351.9842834,0.05048085004,
351.0505371,0.03961191326,351.0505371,8.024657632E-7,351.0505371,0.05135528371,
349.9610291,0.03985937685,349.9610291,-0.0001508889836,349.9610291,0.05188376829,
349.0270081,0.03961091861,349.0270081,8.009857265E-5,349.0270081,0.05301581696,
347.9371643,0.03956469893,347.9371643,0.0002245670476,347.9371643,0.05428188667,
347.0028992,0.03946881369,347.0028992,0.000162128199,347.0028992,0.05512298271,
346.068512,0.03948006779,346.068512,-2.821478847E-5,346.068512,0.05598853528,
344.978241,0.03940704465,344.978241,-7.444166113E-5,344.978241,0.05701066181,
344.0435791,0.03949223086,344.0435791,-0.0001890299754,344.0435791,0.05767424405,
342.9530029,0.03942056745,342.9530029,-0.0002126788022,342.9530029,0.05900987983,
342.0180664,0.0392790325,342.0180664,-0.0002105054446,342.0180664,0.05989219248,
340.9272156,0.03892814368,340.9272156,0.000105549916,340.9272156,0.06142917648,
339.9920349,0.03871318325,339.9920349,0.0003481504682,339.9920349,0.06213045865,
339.0567322,0.03856449574,339.0567322,8.600170258E-5,339.0567322,0.06331583112,
337.9654236,0.03837536275,337.9654236,0.0002083025611,337.9654236,0.06448105723,
337.0298767,0.03844068944,337.0298767,-0.0001903236989,337.0298767,0.06498271972,
335.9382629,0.03784458339,335.9382629,0.0001696638938,335.9382629,0.06679704785,
335.0024719,0.03767603263,335.0024719,0.0001115828563,335.0024719,0.06757742912,
334.0665588,0.03761683404,334.0665588,-4.648871254E-5,334.0665588,0.06857482344,
332.9745178,0.03717105836,332.9745178,7.326347259E-5,332.9745178,0.06998953223,
332.0383606,0.03721127287,332.0383606,-0.0001468521514,332.0383606,0.07097324729,
330.9460449,0.03687168658,330.9460449,8.998894918E-5,330.9460449,0.07229177654,
330.009613,0.03677247837,330.009613,-0.0001702445297,330.009613,0.07316410542,
329.0730896,0.03656280786,329.0730896,-3.701535752E-5,329.0730896,0.07435176522,
327.9803467,0.03640837967,327.9803467,-0.0001939978829,327.9803467,0.07565312088,
327.0435791,0.03609411791,327.0435791,-4.550514859E-5,327.0435791,0.0770034194,
325.950531,0.03611026332,325.950531,-0.0001888229745,325.950531,0.07812257856,
325.0135193,0.03566561267,325.0135193,8.408576832E-5,325.0135193,0.07966617495,
324.0763855,0.03579039872,324.0763855,-2.852540092E-5,324.0763855,0.08034878224,
322.9829102,0.03598611429,322.9829102,-0.0001087592173,322.9829102,0.08195064962,
322.0455322,0.03588404506,322.0455322,0.000104332983,322.0455322,0.08348694444,
320.9517822,0.03622637317,320.9517822,-0.0002327042748,320.9517822,0.08476900309,
320.0141907,0.03631420061,320.0141907,1.879362026E-5,320.0141907,0.08595506847,
319.0764465,0.03647695854,319.0764465,-0.0001102602255,319.0764465,0.08746962249,
317.9822998,0.03682409599,317.9822998,-0.0001080345901,317.9822998,0.08908136934,
317.044342,0.03720453382,317.044342,-0.0003017772979,317.044342,0.09005417675,
315.9498901,0.03752027825,315.9498901,-4.390038157E-5,315.9498901,0.09218665212,
315.0116882,0.03779255971,315.0116882,-0.0001673981751,315.0116882,0.09325377643,
314.0733948,0.03812308982,314.0733948,-3.385752643E-5,314.0733948,0.09402063489,
312.9785461,0.0388305001,312.9785461,-0.0001982930116,312.9785461,0.09683908522,
312.0400085,0.03897531703,312.0400085,9.102460172E-5,312.0400085,0.09822207689,
310.9448853,0.03932508081,310.9448853,2.738821786E-5,310.9448853,0.1002384275,
310.0061035,0.039558772,310.0061035,-4.809346501E-5,310.0061035,0.1011275724,
309.0671997,0.03985637054,309.0671997,7.53864806E-5,309.0671997,0.1027429253,
307.9717102,0.04037882388,307.9717102,-0.0003236610501,307.9717102,0.1043819636,
307.0325928,0.04028244689,307.0325928,-7.071470463E-5,307.0325928,0.106502369,
305.9367981,0.04042902216,305.9367981,0.0002400292433,305.9367981,0.1086471453,
304.997467,0.04058938101,304.997467,0.0001649767219,304.997467,0.109903954,
304.0579834,0.04093199968,304.0579834,-0.0002454849018,304.0579834,0.111415863,
302.9618225,0.04091211781,302.9618225,-5.844658517E-5,302.9618225,0.1137115136,
302.0221252,0.04067019001,302.0221252,8.361972868E-5,302.0221252,0.1154476926,
300.9256897,0.04076915607,300.9256897,0.0001095632397,300.9256897,0.1176589355,
299.9857788,0.04081439599,299.9857788,0.0001232864743,299.9857788,0.11890506,
299.0457764,0.04044155404,299.0457764,-0.0001616019144,299.0457764,0.1211774796,
297.9489441,0.04003300518,297.9489441,0.0001425515366,297.9489441,0.1240469664,
297.0086975,0.04037453234,297.0086975,-0.0002557815751,297.0086975,0.1251899749,
296.0683594,0.03996394947,296.0683594,0.0001968556317,296.0683594,0.1274821609,
294.9711609,0.04002775624,294.9711609,0.0002025531576,294.9711609,0.1297676414,
294.0306091,0.04007374123,294.0306091,-4.426274973E-5,294.0306091,0.1320478022,
292.933136,0.04070973396,292.933136,0.0001199980397,292.933136,0.1341090798,
291.9923401,0.04082639888,291.9923401,-4.63851793E-5,291.9923401,0.1362980753,
291.0514526,0.04024844989,291.0514526,0.0002719654585,291.0514526,0.1394188255,
289.9536438,0.04087156057,289.9536438,7.409196405E-5,289.9536438,0.1409957707,
289.0125122,0.0406418778,289.0125122,-1.361580598E-5,289.0125122,0.1435779035,
288.0713196,0.03953469917,288.0713196,0.0002875070495,288.0713196,0.1470762789,
286.973114,0.03967569396,286.973114,0.0002469705651,286.973114,0.1496289223,
286.0316772,0.03972825408,286.0316772,0.0001429658441,286.0316772,0.1520834267,
284.9332275,0.04036308452,284.9332275,0.0003172189463,284.9332275,0.1540244371,
283.9916077,0.04045394063,283.9916077,0.000178934788,283.9916077,0.1568180174,
283.0498657,0.03988176584,283.0498657,0.0003240837832,283.0498657,0.1606072634,
281.9510498,0.04065899178,281.9510498,0.000183596203,281.9510498,0.161087513,
281.0090942,0.04080962017,281.0090942,0.0001589430467,281.0090942,0.1647395045,
280.0670471,0.04127175733,280.0670471,-0.000170969055,280.0670471,0.1675771177,
278.967865,0.04160978645,278.967865,-0.0003008460335,278.967865,0.1705178916,
278.0256042,0.04126577824,278.0256042,0.0002074997174,278.0256042,0.1737249792,
276.926178,0.04177191854,276.926178,4.732212983E-5,276.926178,0.1765370816,
275.9837036,0.04202170298,275.9837036,4.072053707E-5,275.9837036,0.1793792695,
275.0411377,0.04245707393,275.0411377,-0.0001118647488,275.0411377,0.181752786,
273.9413757,0.04284962267,273.9413757,-0.0002357571648,273.9413757,0.1852424443,
272.9985962,0.0423223637,272.9985962,8.059049287E-5,272.9985962,0.1883036047,
272.0557556,0.04222515598,272.0557556,0.0001009929038,272.0557556,0.1910351664,
270.9556274,0.04281713814,270.9556274,0.0001312099048,270.9556274,0.192734018,
270.0125427,0.04360730946,270.0125427,-0.0002077628451,270.0125427,0.1957425922,
269.069397,0.04382719472,269.069397,-0.0001542012178,269.069397,0.198911652,
267.9689026,0.04394475743,267.9689026,-0.0001382608316,267.9689026,0.2017500103,
267.0255432,0.04390657693,267.0255432,-2.795675528E-6,267.0255432,0.2040345818,
265.9248352,0.04381803423,265.9248352,0.0001800224418,265.9248352,0.2070153356,
264.9812927,0.04330429807,264.9812927,0.0001390816906,264.9812927,0.2096163034,
264.0376282,0.0418461673,264.0376282,0.0001104694747,264.0376282,0.2124188691,
262.9365845,0.04068633914,262.9365845,6.213076995E-5,262.9365845,0.2144010663,
261.9927368,0.04027298838,261.9927368,9.596988821E-5,261.9927368,0.2166431546,
261.0487671,0.0399499014,261.0487671,2.200363087E-5,261.0487671,0.2189566046,
259.9473877,0.04026412591,259.9473877,1.025096481E-5,259.9473877,0.2206537127,
259.0032654,0.04084320366,259.0032654,3.60088743E-5,259.0032654,0.2230793238,
258.059021,0.04146748036,258.059021,0.000249405246,258.059021,0.2246507555,
256.9573059,0.04163540155,256.9573059,0.0001831300615,256.9573059,0.2270453274,
256.0128784,0.04189610854,256.0128784,-2.837009379E-5,256.0128784,0.2287093997,
255.0683746,0.0418510139,255.0683746,8.563922893E-5,255.0683746,0.2308328897,
253.9663391,0.04223939031,253.9663391,-0.0001445232047,253.9663391,0.2327973396,
253.021637,0.04132029414,253.021637,0.0002743484802,253.021637,0.2350070924,
252.0768433,0.04181851819,252.0768433,8.496605733E-5,252.0768433,0.2348236889,
250.974472,0.04239821807,250.974472,4.566524876E-5,250.974472,0.2380941063,
250.0294952,0.04188433662,250.0294952,2.283202411E-5,250.0294952,0.2406631857,
248.9333038,0.04211718589,248.9333038,3.629364437E-5,248.9333038,0.2424623221,
247.9937744,0.04248584807,247.9937744,0.000158994837,247.9937744,0.2450352907,
247.0541534,0.04223570973,247.0541534,0.0003677104833,247.0541534,0.2444929332,
245.9578247,0.04297326505,245.9578247,0.0002806686971,245.9578247,0.2484111935,
245.0180206,0.04343659431,245.0180206,7.453210128E-5,245.0180206,0.2511240542,
244.0781403,0.04348265752,244.0781403,0.0001132917751,244.0781403,0.2540892065,
242.9815063,0.04364580661,242.9815063,6.878446584E-5,242.9815063,0.2565070093,
242.0414276,0.04381359369,242.0414276,4.040987551E-5,242.0414276,0.2592597604,
240.9445801,0.04445778579,240.9445801,0.0001349645172,240.9445801,0.2621613443,
240.0043335,0.04510667175,240.0043335,0.0001425256341,240.0043335,0.266133517,
239.0639954,0.04528654739,239.0639954,0.000108268614,239.0639954,0.2700273395,
237.9668427,0.04553565755,237.9668427,-1.428881933E-5,237.9668427,0.2739216387,
237.0263367,0.0455628559,237.0263367,-5.953731943E-6,237.0263367,0.2776750922,
235.9289703,0.04567516223,235.9289703,6.888802454E-5,235.9289703,0.2817185223,
234.9882813,0.04612500966,234.9882813,0.0001181078478,234.9882813,0.2864250243,
234.0475159,0.04682240263,234.0475159,-1.263216927E-5,234.0475159,0.2898467481,
232.9498596,0.04731384665,232.9498596,0.00014879214,232.9498596,0.2949205041,
232.0089111,0.04799048975,232.0089111,0.0001801778271,232.0089111,0.2996459603,
231.0679016,0.04832577705,231.0679016,0.0003493421827,231.0679016,0.3036889434,
229.9699402,0.04895720258,229.9699402,0.0002644539054,229.9699402,0.309517622,

Baseline 100%T,
Baseline 100%T
Collection Time: 24/02/2023 2:51:50 PM
Operator Name  :
Scan Software Version: 4.10(464)
Parameter List :
Instrument                        Cary 50
Instrument Version                3.00
Start (nm)                        800.0
Stop (nm)                         230.0
X Mode                            Nanometers
Y Mode                            Abs
UV-Vis Scan Rate (nm/min)         240.00
UV-Vis Data Interval (nm)         1.00
UV-Vis Ave. Time (sec)            0.2500
Beam Mode                         Dual Beam
Baseline Correction               On
Baseline Type                     Baseline correction
Baseline File Name
Baseline Std Ref File Name
Cycle Mode                        Off
Comments
Method Log     :
Method Name    : C:\DOCUMENTS AND SETTINGS\XENOPOULOS LAB\DESKTOP\CARY50 METHODS\ABSSCAN_800TO230NM.MSW
Date/Time stamp: 11/07/2011 5:15:55 PM
Method Modifications:
X Stop nm Changed: 11/07/2011 5:14:48 PM, Old:  200.0, New:  230.0
Common Interval nm Changed: 11/07/2011 5:14:54 PM, Old:     5.00, New:     1.00
UVVIS SAT Changed: 11/07/2011 5:15:01 PM, Old:0.0125, New:0.2500
Common SAT Changed: 11/07/2011 5:15:01 PM, Old:0.0125, New:0.2500
Baseline Correction Changed: 11/07/2011 5:15:06 PM, Old:0, New:1
Autoconvert Changed: 11/07/2011 5:15:15 PM, Old:None, New:Ascii
XY Table Changed: 11/07/2011 5:15:15 PM, Old:0, New:1
Y Min Abs Changed: 11/07/2011 5:15:24 PM, Old:    -0.05, New:    -0.02
Saved as C:\Documents and Settings\Xenopoulos Lab\Desktop\Cary50 Methods\AbsScan_800to230nm.MSW
Opened C:\DOCUMENTS AND SETTINGS\XENOPOULOS LAB\DESKTOP\CARY50 METHODS\ABSSCAN_800TO230NM.MSW
End Method Modifications
<Current Wavelength> , 231.1

BLANK,
BLANK
Collection Time: 24/02/2023 2:55:48 PM
Operator Name  :
Scan Software Version: 4.10(464)
Parameter List :
Instrument                        Cary 50
Instrument Version                3.00
Start (nm)                        800.0
Stop (nm)                         230.0
X Mode                            Nanometers
Y Mode                            Abs
UV-Vis Scan Rate (nm/min)         240.00
UV-Vis Data Interval (nm)         1.00
UV-Vis Ave. Time (sec)            0.2500
Beam Mode                         Dual Beam
Baseline Correction               On
Baseline Type                     Baseline correction
Baseline File Name
Baseline Std Ref File Name
Cycle Mode                        Off
Comments
Method Log     :
Method Name    : C:\DOCUMENTS AND SETTINGS\XENOPOULOS LAB\DESKTOP\CARY50 METHODS\ABSSCAN_800TO230NM.MSW
Date/Time stamp: 11/07/2011 5:15:55 PM
Method Modifications:
X Stop nm Changed: 11/07/2011 5:14:48 PM, Old:  200.0, New:  230.0
Common Interval nm Changed: 11/07/2011 5:14:54 PM, Old:     5.00, New:     1.00
UVVIS SAT Changed: 11/07/2011 5:15:01 PM, Old:0.0125, New:0.2500
Common SAT Changed: 11/07/2011 5:15:01 PM, Old:0.0125, New:0.2500
Baseline Correction Changed: 11/07/2011 5:15:06 PM, Old:0, New:1
Autoconvert Changed: 11/07/2011 5:15:15 PM, Old:None, New:Ascii
XY Table Changed: 11/07/2011 5:15:15 PM, Old:0, New:1
Y Min Abs Changed: 11/07/2011 5:15:24 PM, Old:    -0.05, New:    -0.02
Saved as C:\Documents and Settings\Xenopoulos Lab\Desktop\Cary50 Methods\AbsScan_800to230nm.MSW
Opened C:\DOCUMENTS AND SETTINGS\XENOPOULOS LAB\DESKTOP\CARY50 METHODS\ABSSCAN_800TO230NM.MSW
End Method Modifications
<Current Wavelength> , 231.1

L239_JUNE_3_2022,
L239_JUNE_3_2022
Collection Time: 24/02/2023 2:59:54 PM
Operator Name  :
Scan Software Version: 4.10(464)
Parameter List :
Instrument                        Cary 50
Instrument Version                3.00
Start (nm)                        800.0
Stop (nm)                         230.0
X Mode                            Nanometers
Y Mode                            Abs
UV-Vis Scan Rate (nm/min)         240.00
UV-Vis Data Interval (nm)         1.00
UV-Vis Ave. Time (sec)            0.2500
Beam Mode                         Dual Beam
Baseline Correction               On
Baseline Type                     Baseline correction
Baseline File Name
Baseline Std Ref File Name
Cycle Mode                        Off
Comments
Method Log     :
Method Name    : C:\DOCUMENTS AND SETTINGS\XENOPOULOS LAB\DESKTOP\CARY50 METHODS\ABSSCAN_800TO230NM.MSW
Date/Time stamp: 11/07/2011 5:15:55 PM
Method Modifications:
X Stop nm Changed: 11/07/2011 5:14:48 PM, Old:  200.0, New:  230.0
Common Interval nm Changed: 11/07/2011 5:14:54 PM, Old:     5.00, New:     1.00
UVVIS SAT Changed: 11/07/2011 5:15:01 PM, Old:0.0125, New:0.2500
Common SAT Changed: 11/07/2011 5:15:01 PM, Old:0.0125, New:0.2500
Baseline Correction Changed: 11/07/2011 5:15:06 PM, Old:0, New:1
Autoconvert Changed: 11/07/2011 5:15:15 PM, Old:None, New:Ascii
XY Table Changed: 11/07/2011 5:15:15 PM, Old:0, New:1
Y Min Abs Changed: 11/07/2011 5:15:24 PM, Old:    -0.05, New:    -0.02
Saved as C:\Documents and Settings\Xenopoulos Lab\Desktop\Cary50 Methods\AbsScan_800to230nm.MSW
Opened C:\DOCUMENTS AND SETTINGS\XENOPOULOS LAB\DESKTOP\CARY50 METHODS\ABSSCAN_800TO230NM.MSW
End Method Modifications
<Current Wavelength> , 231.1

